Binding Energy,CPS
700,0
699.9,0
699.8,0
699.7,0
699.6,0
699.5,0
699.4,0
699.3,0
699.2,0
699.1,0
699,0
698.9,0
698.8,0
698.7,0
698.6,0
698.5,0
698.4,0
698.3,0
698.2,0
698.1,0
698,0
697.9,0
697.8,0
697.7,0
697.6,0
697.5,0
697.4,0
697.3,0
697.2,0
697.1,0
697,0
696.9,0
696.8,0
696.7,0
696.6,0
696.5,0
696.4,0
696.3,0
696.2,0
696.1,0
696,0
695.9,0
695.8,0
695.7,0
695.6,0
695.5,0
695.4,0
695.3,0
695.2,0
695.1,0
695,0
694.9,0
694.8,0
694.7,0
694.6,0
694.5,0
694.4,0
694.3,0
694.2,0
694.1,0
694,0
693.9,0
693.8,0
693.7,0
693.6,0
693.5,0
693.4,0
693.3,0
693.2,0
693.1,0
693,0
692.9,0
692.8,0
692.7,0
692.6,0
692.5,0
692.4,0
692.3,0
692.2,0
692.1,0
692,0
691.9,0
691.8,0
691.7,0
691.6,0
691.5,0
691.4,0
691.3,0
691.2,0
691.1,0
691,0
690.9,0
690.8,0
690.7,0
690.6,0
690.5,0
690.4,0
690.3,0
690.2,0
690.1,0
690,0
689.9,0
689.8,0
689.7,0
689.6,0
689.5,0
689.4,0
689.3,0
689.2,0
689.1,0
689,0
688.9,0
688.8,0
688.7,0
688.6,0
688.5,0
688.4,0
688.3,0
688.2,0
688.1,0
688,0
687.9,0
687.8,0
687.7,0
687.6,0
687.5,0
687.4,0
687.3,0
687.2,0
687.1,0
687,0
686.9,0
686.8,0
686.7,0
686.6,0
686.5,0
686.4,0
686.3,0
686.2,0
686.1,0
686,0
685.9,0
685.8,0
685.7,0
685.6,0
685.5,0
685.4,0
685.3,0
685.2,0
685.1,0
685,0
684.9,0
684.8,0
684.7,0
684.6,0
684.5,0
684.4,0
684.3,0
684.2,0
684.1,0
684,0
683.9,0
683.8,0
683.7,0
683.6,0
683.5,0
683.4,0
683.3,0
683.2,0
683.1,0
683,0
682.9,0
682.8,0
682.7,0
682.6,0
682.5,0
682.4,0
682.3,0
682.2,0
682.1,0
682,0
540,0
539.9,0
539.8,0
539.7,0
539.6,0
539.5,0
539.4,0
539.3,0
539.2,0
539.1,0
539,0
538.9,0
538.8,0
538.7,0
538.6,0
538.5,0
538.4,0
538.3,0
538.2,0
538.1,0
538,0
537.9,0
537.8,0
537.7,0
537.6,0
537.5,0
537.4,0
537.3,0
537.2,0
537.1,0
537,0
536.9,0
536.8,0
536.7,0
536.6,0
536.5,0
536.4,0
536.3,0
536.2,0
536.1,0
536,0
535.9,0
535.8,0
535.7,0
535.6,0
535.5,-0.000728932
535.4,0.001259065
535.3,0.00443986
535.2,0.004373594
535.1,0.003710928
535,0.004108693
534.9,0.00841602
534.8,0.005367758
534.7,0.009476285
534.6,0.010006584
534.5,0.011795781
534.4,0.021139533
534.3,0.025778359
534.2,0.030417185
534.1,0.042941732
534,0.062556969
533.9,0.078129944
533.8,0.111330159
533.7,0.150428099
533.6,0.215304231
533.5,0.283891624
533.4,0.373419749
533.3,0.469243696
533.2,0.599858256
533.1,0.710991106
533,0.832594572
532.9,0.917553451
532.8,0.982499993
532.7,1
532.6,0.960510425
532.5,0.890670429
532.4,0.778485762
532.3,0.633564416
532.2,0.497588394
532.1,0.37539499
532,0.268376134
531.9,0.176929426
531.8,0.125440963
531.7,0.081838056
531.6,0.052416029
531.5,0.036379851
531.4,0.020939905
531.3,0.015969912
531.2,0.012524216
531.1,0.009277154
531,0.008548222
530.9,0.007289157
530.8,0.006560391
530.7,0.003247062
530.6,0.002981996
530.5,0.001192798
530.4,-0.001325331
530.3,-0.000265066
530.2,0
530.1,0
530,0
529.9,0
529.8,0
529.7,0
529.6,0
529.5,0
529.4,0
529.3,0
529.2,0
529.1,0
529,0
528.9,0
528.8,0
528.7,0
528.6,0
528.5,0
528.4,0
528.3,0
528.2,0
528.1,0
528,0
527.9,0
527.8,0
527.7,0
527.6,0
527.5,0
527.4,0
527.3,0
527.2,0
527.1,0
527,0
526.9,0
526.8,0
526.7,0
526.6,0
526.5,0
526.4,0
526.3,0
526.2,0
526.1,0
526,0
525.9,0
525.8,0
525.7,0
525.6,0
525.5,0
525.4,0
525.3,0
525.2,0
525.1,0
525,0
524.9,0
524.8,0
524.7,0
524.6,0
524.5,0
524.4,0
524.3,0
524.2,0
524.1,0
524,0
523.9,0
523.8,0
523.7,0
523.6,0
523.5,0
523.4,0
523.3,0
523.2,0
523.1,0
523,0
522.9,0
522.8,0
522.7,0
522.6,0
522.5,0
522.4,0
522.3,0
522.2,0
522.1,0
522,0
521.9,0
521.8,0
521.7,0
521.6,0
521.5,0
521.4,0
521.3,0
521.2,0
521.1,0
521,0
520.9,0
520.8,0
520.7,0
520.6,0
520.5,0
520.4,0
520.3,0
520.2,0
520.1,0
520,0
410,0
409.9,0
409.8,0
409.7,0
409.6,0
409.5,0
409.4,0
409.3,0
409.2,0
409.1,0
409,0
408.9,0
408.8,0
408.7,0
408.6,0
408.5,0
408.4,0
408.3,0
408.2,0
408.1,0
408,0
407.9,0
407.8,0
407.7,0
407.6,0
407.5,0
407.4,0
407.3,0
407.2,0
407.1,0
407,0
406.9,0
406.8,0
406.7,0
406.6,0
406.5,0
406.4,0
406.3,0
406.2,0
406.1,0
406,0
405.9,0
405.8,0
405.7,0
405.6,0
405.5,0
405.4,0
405.3,0
405.2,0
405.1,0
405,0
404.9,0
404.8,0
404.7,0
404.6,0
404.5,0
404.4,0
404.3,0
404.2,0
404.1,0
404,0
403.9,0
403.8,0
403.7,0
403.6,0
403.5,0
403.4,0
403.3,0
403.2,0
403.1,0
403,0
402.9,0
402.8,0
402.7,0
402.6,0
402.5,0
402.4,0
402.3,0
402.2,0
402.1,0
402,0
401.9,0
401.8,0
401.7,0
401.6,0
401.5,0
401.4,0
401.3,0
401.2,0
401.1,0
401,0
400.9,0
400.8,0
400.7,0
400.6,0
400.5,0
400.4,0
400.3,0
400.2,0
400.1,0
400,0
399.9,0
399.8,0
399.7,0
399.6,0
399.5,0
399.4,0
399.3,0
399.2,0
399.1,0
399,0
398.9,0
398.8,0
398.7,0
398.6,0
398.5,0
398.4,0
398.3,0
398.2,0
398.1,0
398,0
397.9,0
397.8,0
397.7,0
397.6,0
397.5,0
397.4,0
397.3,0
397.2,0
397.1,0
397,0
396.9,0
396.8,0
396.7,0
396.6,0
396.5,0
396.4,0
396.3,0
396.2,0
396.1,0
396,0
395.9,0
395.8,0
395.7,0
395.6,0
395.5,0
395.4,0
395.3,0
395.2,0
395.1,0
395,0
394.9,0
394.8,0
394.7,0
394.6,0
394.5,0
394.4,0
394.3,0
394.2,0
394.1,0
394,0
393.9,0
393.8,0
393.7,0
393.6,0
393.5,0
393.4,0
393.3,0
393.2,0
393.1,0
393,0
392.9,0
392.8,0
392.7,0
392.6,0
392.5,0
392.4,0
392.3,0
392.2,0
392.1,0
392,0
300,0
299.9,0
299.8,0
299.7,0
299.6,0
299.5,0
299.4,0
299.3,0
299.2,0
299.1,0
299,0
298.9,0
298.8,0
298.7,0
298.6,0
298.5,0
298.4,0
298.3,0
298.2,0
298.1,0
298,0
297.9,0
297.8,0
297.7,0
297.6,0
297.5,0
297.4,0
297.3,0
297.2,0
297.1,0
297,0
296.9,0
296.8,0
296.7,0
296.6,0
296.5,0
296.4,0
296.3,0
296.2,0
296.1,0
296,0
295.9,0
295.8,0
295.7,0
295.6,0
295.5,0
295.4,0
295.3,0
295.2,0
295.1,0
295,0
294.9,0
294.8,0
294.7,0
294.6,0
294.5,0
294.4,0
294.3,0
294.2,0
294.1,0
294,0
293.9,0
293.8,0
293.7,0
293.6,0
293.5,0
293.4,0
293.3,0
293.2,0
293.1,0
293,0
292.9,0
292.8,0
292.7,0
292.6,0
292.5,0
292.4,0
292.3,0
292.2,0
292.1,0
292,0
291.9,0
291.8,0
291.7,0
291.6,0
291.5,0
291.4,0
291.3,0
291.2,0
291.1,0
291,0
290.9,0
290.8,0
290.7,0
290.6,0
290.5,0
290.4,0
290.3,0
290.2,0
290.1,0
290,0
289.9,0
289.8,0
289.7,0
289.6,0
289.5,0
289.4,0
289.3,0
289.2,0
289.1,0
289,0
288.9,0.000662798
288.8,0.001060596
288.7,0.000597062
288.6,0.002718122
288.5,0.002520134
288.4,0.003978976
288.3,0.003914002
288.2,0.007162754
288.1,0.008954105
288,0.014457858
287.9,0.017643193
287.8,0.027457521
287.7,0.038600294
287.6,0.055777385
287.5,0.077996897
287.4,0.11400925
287.3,0.164083171
287.2,0.228222916
287.1,0.310474691
287,0.401101268
286.9,0.513890716
286.8,0.6174984
286.7,0.713646805
286.6,0.777477351
286.5,0.818657071
286.4,0.796153855
286.3,0.720553637
286.2,0.633664512
286.1,0.529185736
286,0.419109738
285.9,0.326898264
285.8,0.274893816
285.7,0.258863883
285.6,0.264570478
285.5,0.282076798
285.4,0.314368498
285.3,0.338583032
285.2,0.375397807
285.1,0.380938669
285,0.382107048
284.9,0.357492678
284.8,0.317427694
284.7,0.268005903
284.6,0.20829515
284.5,0.150093684
284.4,0.102015912
284.3,0.066187035
284.2,0.039892244
284.1,0.026249647
284,0.016977578
283.9,0.009028522
283.8,0.008169243
283.7,0.004128507
283.6,0.003201835
283.5,0.001081868
283.4,0.000750668
283.3,-0.000574415
283.2,0.000353416
283.1,0
283,0
282.9,0
282.8,0
282.7,0
282.6,0
282.5,0
282.4,0
282.3,0
282.2,0
282.1,0
282,0
281.9,0
281.8,0
281.7,0
281.6,0
281.5,0
281.4,0
281.3,0
281.2,0
281.1,0
281,0
280.9,0
280.8,0
280.7,0
280.6,0
280.5,0
280.4,0
280.3,0
280.2,0
280.1,0
280,0
279.9,0
279.8,0
279.7,0
279.6,0
279.5,0
279.4,0
279.3,0
279.2,0
279.1,0
279,0
278.9,0
278.8,0
278.7,0
278.6,0
278.5,0
278.4,0
278.3,0
278.2,0
278.1,0
278,0
277.9,0
277.8,0
277.7,0
277.6,0
277.5,0
277.4,0
277.3,0
277.2,0
277.1,0
277,0
276.9,0
276.8,0
276.7,0
276.6,0
276.5,0
276.4,0
276.3,0
276.2,0
276.1,0
276,0
275.9,0
275.8,0
275.7,0
275.6,0
275.5,0
275.4,0
275.3,0
275.2,0
275.1,0
275,0
210,0
209.9,0
209.8,0
209.7,0
209.6,0
209.5,0
209.4,0
209.3,0
209.2,0
209.1,0
209,0
208.9,0
208.8,0
208.7,0
208.6,0
208.5,0
208.4,0
208.3,0
208.2,0
208.1,0
208,0
207.9,0
207.8,0
207.7,0
207.6,0
207.5,0
207.4,0
207.3,0
207.2,0
207.1,0
207,0
206.9,0
206.8,0
206.7,0
206.6,0
206.5,0
206.4,0
206.3,0
206.2,0
206.1,0
206,0
205.9,0
205.8,0
205.7,0
205.6,0
205.5,0
205.4,0
205.3,0
205.2,0
205.1,0
205,0
204.9,0
204.8,0
204.7,0
204.6,0
204.5,0
204.4,0
204.3,0
204.2,0
204.1,0
204,0
203.9,0
203.8,0
203.7,0
203.6,0
203.5,0
203.4,0
203.3,0
203.2,0
203.1,0
203,0
202.9,0
202.8,0
202.7,0
202.6,0
202.5,0
202.4,0
202.3,0
202.2,0
202.1,0
202,0
201.9,0
201.8,0
201.7,0
201.6,0
201.5,0
201.4,0
201.3,0
201.2,0
201.1,0
201,0
200.9,0
200.8,0
200.7,0
200.6,0
200.5,0
200.4,0
200.3,0
200.2,0
200.1,0
200,0
199.9,0
199.8,0
199.7,0
199.6,0
199.5,0
199.4,0
199.3,0
199.2,0
199.1,0
199,0
198.9,0
198.8,0
198.7,0
198.6,0
198.5,0
198.4,0
198.3,0
198.2,0
198.1,0
198,0
197.9,0
197.8,0
197.7,0
197.6,0
197.5,0
197.4,0
197.3,0
197.2,0
197.1,0
197,0
196.9,0
196.8,0
196.7,0
196.6,0
196.5,0
196.4,0
196.3,0
196.2,0
196.1,0
196,0
90,0
89.9,0
89.8,0
89.7,0
89.6,0
89.5,0
89.4,0
89.3,0
89.2,0
89.1,0
89,0
88.9,0
88.8,0
88.7,0
88.6,0
88.5,0
88.4,0
88.3,0
88.2,0
88.1,0
88,0
87.9,0
87.8,0
87.7,0
87.6,0
87.5,0
87.4,0
87.3,0
87.2,0
87.1,0
87,0
86.9,0
86.8,0
86.7,0
86.6,0
86.5,0
86.4,0
86.3,0
86.2,0
86.1,0
86,0
85.9,0
85.8,0
85.7,0
85.6,0
85.5,0
85.4,0
85.3,0
85.2,0
85.1,0
85,0
84.9,0
84.8,0
84.7,0
84.6,0
84.5,0
84.4,0
84.3,0
84.2,0
84.1,0
84,0
83.9,0
83.8,0
83.7,0
83.6,0
83.5,0
83.4,0
83.3,0
83.2,0
83.1,0
83,0
82.9,0
82.8,0
82.7,0
82.6,0
82.5,0
82.4,0
82.3,0
82.2,0
82.1,0
82,0
81.9,0
81.8,0
81.7,0
81.6,0
81.5,0
81.4,0
81.3,0
81.2,0
81.1,0
81,0
80.9,0
80.8,0
80.7,0
80.6,0
80.5,0
80.4,0
80.3,0
80.2,0
80.1,0
80,0
79.9,0
79.8,0
79.7,0
79.6,0
79.5,0
79.4,0
79.3,0
79.2,0
79.1,0
79,0
78.9,0
78.8,0
78.7,0
78.6,0
78.5,0
78.4,0
78.3,0
78.2,0
78.1,0
78,0
77.9,0
77.8,0
77.7,0
77.6,0
77.5,0
77.4,0
77.3,0
77.2,0
77.1,0
77,0
76.9,0
76.8,0
76.7,0
76.6,0
76.5,0
76.4,0
76.3,0
76.2,0
76.1,0
76,0
75.9,0
75.8,0
75.7,0
75.6,0
75.5,0
75.4,0
75.3,0
75.2,0
75.1,0
75,0
74.9,0
74.8,0
74.7,0
74.6,0
74.5,0
74.4,0
74.3,0
74.2,0
74.1,0
74,0
73.9,0
73.8,0
73.7,0
73.6,0
73.5,0
73.4,0
73.3,0
73.2,0
73.1,0
73,0
72.9,0
72.8,0
72.7,0
72.6,0
72.5,0
72.4,0
72.3,0
72.2,0
72.1,0
72,0
71.9,0
71.8,0
71.7,0
71.6,0
71.5,0
71.4,0
71.3,0
71.2,0
71.1,0
71,0
70.9,0
70.8,0
70.7,0
70.6,0
70.5,0
70.4,0
70.3,0
70.2,0
70.1,0
70,0
69.9,0
69.8,0
69.7,0
69.6,0
69.5,0
69.4,0
69.3,0
69.2,0
69.1,0
69,0
68.9,0
68.8,0
68.7,0
68.6,0
68.5,0
68.4,0
68.3,0
68.2,0
68.1,0
68,0
67.9,0
67.8,0
67.7,0
67.6,0
67.5,0
67.4,0
67.3,0
67.2,0
67.1,0
67,0
66.9,0
66.8,0
66.7,0
66.6,0
66.5,0
66.4,0
66.3,0
66.2,0
66.1,0
66,0
65.9,0
65.8,0
65.7,0
65.6,0
65.5,0
65.4,0
65.3,0
65.2,0
65.1,0
65,0
64.9,0
64.8,0
64.7,0
64.6,0
64.5,0
64.4,0
64.3,0
64.2,0
64.1,0
64,0
63.9,0
63.8,0
63.7,0
63.6,0
63.5,0
63.4,0
63.3,0
63.2,0
63.1,0
63,0
62.9,0
62.8,0
62.7,0
62.6,0
62.5,0
62.4,0
62.3,0
62.2,0
62.1,0
62,0
61.9,0
61.8,0
61.7,0
61.6,0
61.5,0
61.4,0
61.3,0
61.2,0
61.1,0
61,0
60.9,0
60.8,0
60.7,0
60.6,0
60.5,0
60.4,0
60.3,0
60.2,0
60.1,0
60,0
30,0.009666636
29.9,0.011210813
29.8,0.01348707
29.7,0.01107596
29.6,0.01289299
29.5,0.015744937
29.4,0.017137364
29.3,0.017632375
29.2,0.023201418
29.1,0.021367822
29,0.022620094
28.9,0.025704969
28.8,0.029169219
28.7,0.031289087
28.6,0.032219801
28.5,0.039125606
28.4,0.039846586
28.3,0.043132911
28.2,0.049520843
28.1,0.051853095
28,0.05748973
27.9,0.062318906
27.8,0.066494528
27.7,0.072936799
27.6,0.078324436
27.5,0.08310938
27.4,0.088146633
27.3,0.095228707
27.2,0.100278883
27.1,0.105815786
27,0.113838017
26.9,0.117499411
26.8,0.126677
26.7,0.126873315
26.6,0.132087665
26.5,0.137507111
26.4,0.138333952
26.3,0.142371575
26.2,0.14361838
26.1,0.144696206
26,0.142815892
25.9,0.142027817
25.8,0.141358193
25.7,0.139896352
25.6,0.131825912
25.5,0.130135452
25.4,0.12522394
25.3,0.116795991
25.2,0.113467919
25.1,0.107797488
25,0.102114798
24.9,0.092847253
24.8,0.086059899
24.7,0.082153319
24.6,0.076344391
24.5,0.068510523
24.4,0.06131066
24.3,0.058430052
24.2,0.052824729
24.1,0.046593517
24,0.041382977
23.9,0.036973102
23.8,0.034493738
23.7,0.03016736
23.6,0.02662127
23.5,0.023689471
23.4,0.021640343
23.3,0.018537411
23.2,0.015219775
23.1,0.013865783
23,0.014049507
22.9,0.012138214
22.8,0.008919977
22.7,0.007217424
22.6,0.006672215
22.5,0.00549002
22.4,0.005466164
22.3,0.004329858
22.2,0.002123678
22.1,0.002232521
22,0.000861797
21.9,0.000434874
21.8,-0.000326197
21.7,0.000587619
21.6,0.000473475
21.5,-3.84346E-05
21.4,-0.00055051
21.3,-0.000415326
21.2,0.002609578
21.1,0.000160696
21,0.003171021
20.9,0.00461381
20.8,0.005003126
20.7,0.007952983
20.6,0.010550963
20.5,0.012329393
20.4,0.016325598
20.3,0.020429321
20.2,0.025113871
20.1,0.02975601
20,0.035918967
19.9,0.040246671
19.8,0.047752851
19.7,0.053419968
19.6,0.057935372
19.5,0.064597316
19.4,0.066486245
19.3,0.072339571
19.2,0.073700521
19.1,0.078424002
19,0.080832295
18.9,0.082848455
18.8,0.083630898
18.7,0.085463666
18.6,0.084863622
18.5,0.088976622
18.4,0.086628466
18.3,0.087823584
18.2,0.08473755
18.1,0.083798055
18,0.082123333
17.9,0.077029588
17.8,0.07581575
17.7,0.071193822
17.6,0.067797163
17.5,0.065547579
17.4,0.06697347
17.3,0.066499498
17.2,0.071607657
17.1,0.076687321
17,0.080846874
16.9,0.089031126
16.8,0.095908934
16.7,0.103015858
16.6,0.106241549
16.5,0.11395299
16.4,0.119419982
16.3,0.120608804
16.2,0.117894691
16.1,0.117015831
16,0.111261573
15.9,0.107922898
15.8,0.097816086
15.7,0.087890513
15.6,0.077920045
15.5,0.066691009
15.4,0.057150776
15.3,0.049042067
15.2,0.040417804
15.1,0.038700506
15,0.03451163
14.9,0.034409745
14.8,0.036918598
14.7,0.039458264
14.6,0.04375416
14.5,0.053078364
14.4,0.060764458
14.3,0.069733804
14.2,0.076153709
14.1,0.082588193
14,0.092047249
13.9,0.095965426
13.8,0.098421928
13.7,0.102653877
13.6,0.100136741
13.5,0.097313288
13.4,0.091580567
13.3,0.083972005
13.2,0.075231113
13.1,0.06589962
13,0.056058703
12.9,0.044526166
12.8,0.035229397
12.7,0.02655227
12.6,0.019328335
12.5,0.015861948
12.4,0.011765795
12.3,0.010009185
12.2,0.009974245
12.1,0.008757392
12,0.010927937
11.9,0.012794816
11.8,0.015248915
11.7,0.015970128
11.6,0.019039546
11.5,0.019096833
11.4,0.021833659
11.3,0.022834914
11.2,0.024608721
11.1,0.025991323
11,0.026930072
10.9,0.026428981
10.8,0.027451142
10.7,0.027482884
10.6,0.028279624
10.5,0.028613425
10.4,0.028104067
10.3,0.029167944
10.2,0.028628567
10.1,0.029185156
10,0.029028022
9.9,0.028500374
9.8,0.029769893
9.7,0.030245024
9.6,0.029044357
9.5,0.029186167
9.4,0.031337892
9.3,0.030273568
9.2,0.029770025
9.1,0.031594344
9,0.032909073
8.9,0.032149144
8.8,0.032371087
8.7,0.033360298
8.6,0.034880801
8.5,0.03503068
8.4,0.037161034
8.3,0.037417651
8.2,0.036320028
8.1,0.038505318
8,0.039340392
7.9,0.039013582
7.8,0.039286402
7.7,0.039608341
7.6,0.040047374
7.5,0.04033845
7.4,0.040068612
7.3,0.041508867
7.2,0.040957926
7.1,0.041487264
7,0.041253061
6.9,0.040754223
6.8,0.043727355
6.7,0.043456093
6.6,0.044763367
6.5,0.045195027
6.4,0.047457931
6.3,0.049295702
6.2,0.050195288
6.1,0.052314012
6,0.052731309
5.9,0.053202697
5.8,0.053059776
5.7,0.05065705
5.6,0.049301948
5.5,0.047796106
5.4,0.04529895
5.3,0.042623122
5.2,0.039668975
5.1,0.037050882
5,0.035251596
4.9,0.033145379
4.8,0.036678895
4.7,0.037404067
4.6,0.039413418
4.5,0.041584593
4.4,0.043348808
4.3,0.043806196
4.2,0.044882912
4.1,0.044433525
4,0.044299269
3.9,0.041168157
3.8,0.037075302
3.7,0.031700576
3.6,0.027663974
3.5,0.022095475
3.4,0.017497473
3.3,0.014488792
3.2,0.009870479
3.1,0.007091959
3,0.004598602
2.9,0.003374148
2.8,0.002143649
2.7,0.001521432
2.6,0.000730761
2.5,0.000468452
2.4,0.00038751
2.3,0.000206982
2.2,0.000124904
2.1,0.00019217
2,6.00027E-05
1.9,-3.91586E-05
1.8,0.000126826
1.7,-3.86549E-05
1.6,0
1.5,0
1.4,0
1.3,0
1.2,0
1.1,0
1,0
0.9,0
0.8,0
0.7,0
0.6,0
0.5,0
0.4,0
0.3,0
0.2,0
0.1,0
0,0
-0.1,0
-0.2,0
-0.3,0
-0.4,0
-0.5,0
-0.6,0
-0.7,0
-0.8,0
-0.9,0
-1,0
-1.1,0
-1.2,0
-1.3,0
-1.4,0
-1.5,0
-1.6,0
-1.7,0
-1.8,0
-1.9,0
-2,0
-2.1,0
-2.2,0
-2.3,0
-2.4,0
-2.5,0
-2.6,0
-2.7,0
-2.8,0
-2.9,0
-3,0
-3.1,0
-3.2,0
-3.3,0
-3.4,0
-3.5,0
-3.6,0
-3.7,0
-3.8,0
-3.9,0
-4,0
-4.1,0
-4.2,0
-4.3,0
-4.4,0
-4.5,0
-4.6,0
-4.7,0
-4.8,0
-4.9,0
-5,0